Time[ps]      Etot[eV]     Epot[eV]     Ekin[eV]    T[K]
0.0000        -273.4708    -273.4708       0.0000     0.0
0.0100        -273.3849    -274.3356       0.9507   175.1
0.0200        -273.3365    -274.5142       1.1777   216.9
0.0300        -273.2929    -274.6255       1.3326   245.5
0.0400        -273.2514    -274.4920       1.2406   228.5
0.0500        -273.2197    -274.5904       1.3707   252.5
0.0600        -273.1897    -274.6072       1.4175   261.1
0.0700        -273.1634    -274.4227       1.2593   232.0
0.0800        -273.1295    -274.5101       1.3806   254.3
0.0900        -273.0994    -274.4344       1.3350   245.9
0.1000        -273.0797    -274.4471       1.3674   251.9
0.1100        -273.0621    -274.4784       1.4163   260.9
0.1200        -273.0358    -274.4104       1.3746   253.2
0.1300        -273.0205    -274.4523       1.4318   263.7
0.1400        -272.9980    -274.3639       1.3659   251.6
0.1500        -272.9673    -274.3435       1.3762   253.5
0.1600        -272.9246    -274.0359       1.1112   204.7
0.1700        -272.8855    -274.2115       1.3260   244.3
0.1800        -272.8593    -274.3394       1.4801   272.6
0.1900        -272.8341    -274.2554       1.4213   261.8
0.2000        -272.8197    -274.3908       1.5710   289.4
0.2100        -272.8104    -274.2163       1.4059   259.0
0.2200        -272.7978    -274.4120       1.6142   297.3
0.2300        -272.7756    -274.1668       1.3912   256.3
0.2400        -272.7664    -274.2033       1.4369   264.7
0.2500        -272.7475    -274.3163       1.5688   289.0
0.2600        -272.7433    -274.1728       1.4296   263.3
0.2700        -272.7131    -274.2015       1.4884   274.2
0.2800        -272.7074    -274.2753       1.5679   288.8
0.2900        -272.6956    -274.2509       1.5554   286.5
0.3000        -272.6947    -274.1863       1.4915   274.7
0.3100        -272.6793    -274.1902       1.5109   278.3
0.3200        -272.6778    -274.3472       1.6694   307.5
0.3300        -272.6563    -274.0164       1.3601   250.5
0.3400        -272.6544    -274.3174       1.6630   306.3
0.3500        -272.6510    -274.2267       1.5757   290.2
0.3600        -272.6714    -274.5992       1.9278   355.1
Time[ps]      Etot[eV]     Epot[eV]     Ekin[eV]    T[K]
0.0000        -272.6497    -274.1447       1.4950   275.4
Time[ps]      Etot[eV]     Epot[eV]     Ekin[eV]    T[K]
0.0100        -272.6386    -274.2100       1.5714   289.4
0.0200        -272.6275    -274.1524       1.5249   280.9
0.0300        -272.6303    -274.3322       1.7019   313.5
0.0400        -272.6312    -274.3084       1.6772   308.9
0.0500        -272.6304    -274.2526       1.6222   298.8
0.0600        -272.6167    -274.1032       1.4866   273.8
0.0700        -272.6085    -273.9317       1.3232   243.7
0.0800        -272.5897    -274.0658       1.4761   271.9
0.0900        -272.5849    -274.1660       1.5812   291.2
0.1000        -272.5731    -274.0623       1.4892   274.3
0.1100        -272.5475    -273.9356       1.3881   255.7
0.1200        -272.5416    -274.0704       1.5288   281.6
0.1300        -272.5468    -274.1684       1.6216   298.7
0.1400        -272.5518    -274.2147       1.6628   306.3
0.1500        -272.5357    -274.1722       1.6366   301.5
0.1600        -272.5448    -274.2007       1.6559   305.0
0.1700        -272.5377    -274.1056       1.5679   288.8
0.1800        -272.5398    -274.0946       1.5547   286.4
0.1900        -272.5438    -274.2188       1.6750   308.5
0.2000        -272.5303    -273.9324       1.4020   258.3
0.2100        -272.5203    -274.1613       1.6411   302.3
0.2200        -272.5086    -273.9748       1.4663   270.1
0.2300        -272.5094    -274.2485       1.7392   320.4
0.2400        -272.5108    -274.0493       1.5385   283.4
0.2500        -272.5127    -274.3950       1.8823   346.7
0.2600        -272.5159    -274.1432       1.6272   299.7
0.2700        -272.5302    -274.3810       1.8507   340.9
0.2800        -272.5396    -274.1732       1.6336   300.9
0.2900        -272.5372    -274.2986       1.7613   324.4
0.3000        -272.5377    -274.0436       1.5059   277.4
0.3100        -272.5397    -274.2483       1.7086   314.7
0.3200        -272.5400    -274.1013       1.5613   287.6
0.3300        -272.5275    -274.2772       1.7497   322.3
0.3400        -272.5193    -274.1356       1.6163   297.7
0.3500        -272.5315    -274.2103       1.6788   309.2
0.3600        -272.5274    -274.0542       1.5268   281.2
0.3700        -272.5188    -274.0819       1.5631   287.9
0.3800        -272.5091    -274.1692       1.6600   305.8
0.3900        -272.4860    -273.7816       1.2956   238.7
0.4000        -272.4787    -273.9239       1.4452   266.2
0.4100        -272.4763    -274.2441       1.7678   325.6
0.4200        -272.4775    -274.1994       1.7219   317.2
0.4300        -272.4761    -273.9789       1.5028   276.8
0.4400        -272.4827    -274.2400       1.7573   323.7
0.4500        -272.5027    -274.2148       1.7121   315.4
0.4600        -272.5154    -274.4635       1.9481   358.8
0.4700        -272.5303    -274.1594       1.6291   300.1
0.4800        -272.5307    -274.3677       1.8370   338.4
0.4900        -272.5506    -274.1131       1.5625   287.8
0.5000        -272.5580    -274.3972       1.8393   338.8
0.5100        -272.5561    -274.0916       1.5355   282.8
0.5200        -272.5551    -274.1790       1.6239   299.1
0.5300        -272.5498    -273.8443       1.2944   238.4
0.5400        -272.5410    -274.2610       1.7200   316.8
0.5500        -272.5607    -274.3441       1.7835   328.5
0.5600        -272.5520    -274.3305       1.7786   327.6
0.5700        -272.5615    -274.3770       1.8155   334.4
0.5800        -272.5781    -274.2359       1.6578   305.4
0.5900        -272.5898    -274.1174       1.5276   281.4
0.6000        -272.5718    -274.0192       1.4474   266.6
0.6100        -272.5345    -273.7775       1.2430   229.0
0.6200        -272.5238    -274.0986       1.5749   290.1
0.6300        -272.5092    -273.9789       1.4696   270.7
0.6400        -272.5146    -274.0864       1.5717   289.5
0.6500        -272.5047    -273.9155       1.4108   259.9
0.6600        -272.4809    -274.1200       1.6391   301.9
0.6700        -272.4838    -274.0803       1.5965   294.1
0.6800        -272.4861    -274.2349       1.7488   322.1
0.6900        -272.4856    -274.2749       1.7893   329.6
0.7000        -272.5049    -274.2413       1.7364   319.8
0.7100        -272.5138    -274.2690       1.7552   323.3
0.7200        -272.5135    -274.0933       1.5798   291.0
0.7300        -272.5210    -274.1430       1.6220   298.8
0.7400        -272.5060    -273.9411       1.4351   264.3
0.7500        -272.4997    -274.1635       1.6638   306.5
0.7600        -272.5120    -274.3692       1.8572   342.1
0.7700        -272.5232    -274.3170       1.7938   330.4
0.7800        -272.5385    -274.2481       1.7097   314.9
0.7900        -272.5424    -274.1988       1.6564   305.1
0.8000        -272.5570    -274.3748       1.8178   334.8
0.8100        -272.5714    -274.3831       1.8118   333.7
0.8200        -272.5912    -274.1962       1.6050   295.6
0.8300        -272.5831    -274.2460       1.6629   306.3
0.8400        -272.5769    -274.2004       1.6235   299.0
0.8500        -272.5840    -274.1645       1.5805   291.1
0.8600        -272.5773    -273.9777       1.4003   257.9
0.8700        -272.5624    -274.0473       1.4849   273.5
0.8800        -272.5368    -273.8907       1.3538   249.4
0.8900        -272.5263    -274.0346       1.5083   277.8
0.9000        -272.5238    -273.9865       1.4627   269.4
0.9100        -272.5294    -274.3010       1.7716   326.3
0.9200        -272.5316    -274.1772       1.6456   303.1
0.9300        -272.5403    -274.4921       1.9518   359.5
0.9400        -272.5644    -274.2701       1.7057   314.2
0.9500        -272.5638    -274.2546       1.6908   311.4
0.9600        -272.5717    -274.2203       1.6486   303.7
0.9700        -272.5930    -274.4388       1.8457   340.0
0.9800        -272.5923    -274.1553       1.5630   287.9
0.9900        -272.6076    -274.4064       1.7989   331.3
1.0000        -272.6098    -274.1715       1.5617   287.7
1.0100        -272.6224    -274.3253       1.7029   313.7
1.0200        -272.6140    -274.2485       1.6345   301.1
1.0300        -272.6175    -274.1839       1.5663   288.5
1.0400        -272.5942    -274.0432       1.4490   266.9
1.0500        -272.5919    -274.0849       1.4930   275.0
1.0600        -272.5836    -274.2494       1.6658   306.8
1.0700        -272.5927    -274.1678       1.5751   290.1
1.0800        -272.5731    -274.1356       1.5625   287.8
1.0900        -272.5661    -273.9859       1.4198   261.5
1.1000        -272.5706    -274.3581       1.7875   329.3
1.1100        -272.5815    -274.2324       1.6509   304.1
1.1200        -272.5806    -274.2736       1.6930   311.9
1.1300        -272.5794    -274.0185       1.4391   265.1
1.1400        -272.5633    -274.1612       1.5979   294.3
1.1500        -272.5609    -274.2077       1.6468   303.3
1.1600        -272.5574    -274.2182       1.6608   305.9
1.1700        -272.5586    -274.2023       1.6437   302.8
1.1800        -272.5643    -274.1126       1.5483   285.2
1.1900        -272.5397    -273.9865       1.4469   266.5
1.2000        -272.5317    -274.0991       1.5674   288.7
1.2100        -272.5064    -273.8319       1.3255   244.2
1.2200        -272.4946    -273.9515       1.4569   268.4
1.2300        -272.4748    -274.1195       1.6448   303.0
1.2400        -272.4819    -274.1514       1.6694   307.5
1.2500        -272.4779    -274.1857       1.7078   314.6
1.2600        -272.4851    -274.1309       1.6458   303.2
1.2700        -272.4817    -274.2112       1.7295   318.6
1.2800        -272.4982    -274.0309       1.5327   282.3
1.2900        -272.5116    -274.3556       1.8440   339.7
1.3000        -272.5129    -274.0814       1.5685   288.9
1.3100        -272.5033    -274.1522       1.6488   303.7
1.3200        -272.5036    -274.0753       1.5717   289.5
1.3300        -272.5024    -274.2407       1.7383   320.2
1.3400        -272.5196    -274.2007       1.6811   309.7
1.3500        -272.5407    -274.4699       1.9293   355.4
1.3600        -272.5561    -274.3999       1.8438   339.6
1.3700        -272.5689    -274.2938       1.7249   317.7
1.3800        -272.5687    -274.1732       1.6045   295.5
1.3900        -272.5650    -274.0538       1.4888   274.2
1.4000        -272.5566    -274.0098       1.4532   267.7
1.4100        -272.5526    -274.2350       1.6824   309.9
1.4200        -272.5329    -274.0720       1.5391   283.5
1.4300        -272.5490    -274.4083       1.8593   342.5
1.4400        -272.5615    -274.1186       1.5571   286.8
1.4500        -272.5510    -274.1808       1.6298   300.2
1.4600        -272.5266    -273.7039       1.1773   216.9
1.4700        -272.4927    -274.1188       1.6262   299.5
1.4800        -272.4928    -274.0130       1.5202   280.0
1.4900        -272.4970    -274.1986       1.7016   313.4
1.5000        -272.5042    -274.0302       1.5260   281.1
1.5100        -272.4954    -274.2787       1.7834   328.5
1.5200        -272.5029    -274.1950       1.6921   311.7
1.5300        -272.5110    -274.2525       1.7415   320.8
1.5400        -272.5217    -274.2209       1.6992   313.0
1.5500        -272.5256    -274.0881       1.5625   287.8
1.5600        -272.5390    -274.2633       1.7243   317.6
1.5700        -272.5319    -274.0464       1.5145   279.0
1.5800        -272.5190    -274.1583       1.6393   302.0
1.5900        -272.5218    -274.0018       1.4801   272.6
1.6000        -272.5357    -274.1919       1.6562   305.1
1.6100        -272.5301    -274.2192       1.6891   311.1
1.6200        -272.5211    -274.0570       1.5359   282.9
1.6300        -272.5121    -274.0324       1.5203   280.0
1.6400        -272.5185    -274.2386       1.7201   316.8
1.6500        -272.5293    -274.1962       1.6670   307.1
1.6600        -272.5415    -274.3344       1.7930   330.3
1.6700        -272.5463    -274.2452       1.6989   312.9
1.6800        -272.5518    -274.1826       1.6307   300.4
1.6900        -272.5757    -274.2558       1.6800   309.5
1.7000        -272.5692    -274.2011       1.6318   300.6
1.7100        -272.5791    -274.2790       1.6999   313.1
1.7200        -272.5773    -274.2733       1.6960   312.4
1.7300        -272.5768    -274.1761       1.5993   294.6
1.7400        -272.5590    -273.9966       1.4375   264.8
1.7500        -272.5743    -274.2282       1.6539   304.6
1.7600        -272.5667    -274.2693       1.7027   313.6
1.7700        -272.5729    -274.2196       1.6467   303.3
1.7800        -272.5588    -273.9990       1.4401   265.3
1.7900        -272.5661    -274.4314       1.8653   343.6
1.8000        -272.5439    -273.9547       1.4108   259.9
1.8100        -272.5621    -274.3847       1.8226   335.7
1.8200        -272.5495    -274.0871       1.5376   283.2
1.8300        -272.5625    -274.2389       1.6765   308.8
1.8400        -272.5638    -274.1753       1.6116   296.8
1.8500        -272.5503    -274.3247       1.7744   326.9
1.8600        -272.5498    -273.8672       1.3174   242.7
1.8700        -272.5425    -274.2897       1.7472   321.8
1.8800        -272.5469    -274.0998       1.5529   286.0
1.8900        -272.5589    -274.4003       1.8413   339.2
1.9000        -272.5623    -274.3271       1.7648   325.1
1.9100        -272.5588    -274.0432       1.4843   273.4
1.9200        -272.5608    -274.0809       1.5202   280.0
1.9300        -272.5641    -274.4900       1.9259   354.7
1.9400        -272.5664    -274.1546       1.5882   292.5
1.9500        -272.5654    -274.1625       1.5971   294.2
1.9600        -272.5650    -274.1946       1.6296   300.2
1.9700        -272.5639    -274.0863       1.5224   280.4
1.9800        -272.5683    -274.4301       1.8618   342.9
1.9900        -272.5454    -273.8385       1.2931   238.2
2.0000        -272.5456    -274.3725       1.8269   336.5
